ANGLE           SINE
 0               0
 0.314159        0.309016742
 0.628318        0.587784823
 0.942477        0.809016526
 1.256636        0.951056188
 1.570795        1
 1.884954        0.951057008
 2.199113        0.809018086
 2.513272        0.58778697
 2.827431        0.309019266
 3.14159         2.65358979E-06
 3.455749       -0.309014218
 3.769908       -0.587782676
 4.084067       -0.809014967
 4.398226       -0.951055368
 4.712385       -1
 5.026544       -0.951057828
 5.340703       -0.809019646
 5.654862       -0.587789117
 5.969021       -0.309021789
 6.28318        -5.30717959E-06
STOP in line 99

10 (1) LET P = 3.14159
20 (1) PRINT "ANGLE", "SINE"
30 F(I) (1) FOR I = 0 TO 2 STEP 0.1
40 F(I) (21) LET A = I * P
50 F(I) (21) LET S = SIN(A)
60 F(I) (21) PRINT A, S
70 F(I) (21) NEXT I
99 (1) END

