COSINE          ANGLE
-1               3.14159265
-0.9             2.69056584
-0.8             2.49809154
-0.7             2.34619382
-0.6             2.21429744
-0.5             2.0943951
-0.4             1.98231317
-0.3             1.87548898
-0.2             1.77215425
-0.1             1.67096375
 0               1.57079633
 0.1             1.47062891
 0.2             1.36943841
 0.3             1.26610367
 0.4             1.15927948
 0.5             1.04719755
 0.6             0.927295218
 0.7             0.79539883
 0.8             0.643501109
 0.9             0.451026812
 1               0
STOP in line 99

10 (0) REM TEST PROGRAM FOR ARCCOS()
20 (1) PRINT "COSINE", "ANGLE"
30 (1) FOR I = -1 TO 1 STEP 0.1
50 (21) LET A = ARCCOS(I)
60 (21) PRINT I, A
70 (21) NEXT I
99 (1) END

